Time (s),Position X (m),Position Y (m),Distance (m),Speed X (m/s),Speed Y (m/s),Speed (m/s)
0.0,0.0,0.0,0.0,0.28642104717598416,0.5728420943519683,0.6404569316721748
0.7,0.2004947330231889,0.4009894660463778,0.44831985217052234,0.4296315707639763,0.5012368325579722,0.6782547748060677
1.4,0.6014841990695667,0.7017315655811611,0.9242350522801792,0.42963157076397634,0.5251052531559709,0.6908540558506986
2.0999999999999996,0.9022262986043501,1.1027210316275389,1.4247827790533578,0.5728420943519683,0.5907434098004674,0.8368644020669791
2.8,1.6039578641855112,1.6540815474413084,2.3040543820987343,0.687410513222362,0.7303736702987595,1.0143881345462176
3.5,2.405936796278267,2.5563078460456583,3.51044750301729,0.8234605106309546,0.8353947209299538,1.1832955613457015
4.199999999999999,3.4585341446500086,3.5086578279058056,4.926676180046203,0.9717856957756605,1.0024736651159445,1.405115225647861
4.8999999999999995,4.761749909300736,4.912120959068128,6.841286027878235,1.1367335309796873,1.1546348464281861,1.6282575086912403
5.6,6.365707773486248,6.465955139997842,9.073632752645864,1.272982431893263,1.26502629169393,1.8021695892253087
6.3,8.019789320927556,7.969665637671759,11.306307581538267,1.4249447097005212,1.3604999740859247,1.9786877161601715
7.0,9.974612967903647,9.523499818601472,13.790937337772727,1.7113657568765057,1.6397604950825095,2.3756486880885026
7.699999999999999,12.180055031158727,11.879312931623943,17.0138712904942,1.9977868040524895,1.919021016079094,2.7751712243844073
8.399999999999999,14.585991827436994,14.134878678134818,20.311227260696214,2.2985289035872727,2.2269236417932774,3.205058463021453
9.1,16.99192862371526,16.691186524180477,23.81850847426047,2.584949950763257,2.5491473198662598,3.6346191985690695
9.799999999999999,19.69860751952831,19.49811278650512,27.716629312448724,2.857049945580442,2.806926262324645,4.009002606901016
10.5,22.40528641534136,22.20479168231817,31.544407317441017,3.050384152424231,3.0503841524242317,4.318234513023714
11.2,24.811223211619627,24.861346894875425,35.1238290436015,3.2437183592680205,3.2437183592680214,4.591556662629972
11.899999999999999,27.46777842417688,27.61814947394427,38.951778289634035,3.336805199600216,3.3726078304972136,4.748908156312962
12.6,29.723344170687756,30.074209953478334,42.283983882967476,3.4513736184706096,3.4800157231882074,4.905938375645657
13.299999999999999,32.17940465022182,32.32977569998921,45.61500280011315,3.5229788802646054,3.551620984982203,5.006693112349453
14.0,34.635465129755886,34.3848467134769,48.80505228215454,3.5874236158792017,3.6160657205968,5.097790412609235
14.7,37.29202034231314,37.19177297580154,52.66804304599763,3.6089051944174004,3.6661894038525964,5.148202624542462
15.399999999999999,39.84832818835879,39.798204505102994,56.3186145180894,3.6303867729555996,3.6518683514937975,5.153137040951025
16.099999999999998,42.404636034404454,42.25426498463706,59.86297742847609,3.601744668238001,3.6518683514937984,5.133651073572535
16.799999999999997,44.91082019719431,45.061191246961705,63.61990826290128,3.5945841420586016,3.6303867729556005,5.11349540841808
17.5,47.56737540975157,47.61749909300737,67.30587955925392,3.5945841420586007,3.6303867729555996,5.11349540841808
18.2,49.97331220602983,50.27405430556462,70.8859116408909,3.565942037341002,3.565942037341004,5.047819095113544
18.9,52.4293726855639,52.57974373533129,74.25273443769504,3.608905194417401,3.558781511161604,5.072934752862107
19.599999999999998,54.98568053160956,54.98568053160956,77.7614951441165,3.6303867729555996,3.6303867729555988,5.138539267207018
20.299999999999997,57.59211206091101,57.74248311067841,81.55394366567145,3.637547299134998,3.6948315085701964,5.187375106477553
21.0,60.09829622370087,60.248667273468264,85.09822041159724,3.6089051944174004,3.680510456211396,5.157400684125601
21.7,62.55435670323494,62.95534616928131,88.74921494779319,3.6232262467762006,3.6948315085701964,5.177652791823458
22.4,65.2109119157922,65.66202506509437,92.5416909751399,3.6518683514937984,3.737794665646594,5.2281841029987515
23.099999999999998,67.96771449486104,68.41882764416322,96.44037634651087,3.651868351493799,3.6661894038525977,5.17711418119399
23.799999999999997,70.4738986576509,70.72451707392989,99.84251452837839,3.6089051944174004,3.694831508570195,5.168476343923427
24.5,72.82971177067337,73.48131965299874,103.45854848462517,3.6590288776731983,3.680510456211396,5.193548366441135
25.2,75.58651434974222,76.03762749904439,107.21493341520676,3.687670982390795,3.723473613287795,5.243965264115739
25.9,78.24306956229947,78.64405902834585,110.93631486120665,3.7091525609289953,3.744955191825992,5.274331661053248
26.599999999999998,80.94974845811252,81.2003668743915,114.65758307223935,3.730634139467194,3.716313087108394,5.269437502200573
27.299999999999997,83.70655103718137,83.75667472043716,118.41438783680539,3.766436770364193,3.7234736132877932,5.300199038543565
28.0,86.46335361625022,86.31298256648282,122.17136521333751,3.7950788750817908,3.7163130871083956,5.314774697081818
28.7,89.11990882880747,88.96953777904008,125.92830024371405,3.716313087108394,3.6948315085701955,5.246065272976874
29.4,91.22510352555095,91.52584562508574,129.2246103907244,3.637547299134998,3.6518683514937975,5.160669964639048
30.099999999999998,93.43054558880603,93.9819061046198,132.5211889626694,3.6232262467761984,3.716313087108393,5.1968939852992735
30.799999999999997,95.8364823850843,96.73870868368864,136.1727179494268,3.5587815111616026,3.6303867729555996,5.0897601828775825
31.499999999999996,97.74118234880459,98.89402706368793,139.04447963085664,3.5372999326234043,3.6733499300319976,5.105148299664907
32.199999999999996,100.34761387810605,101.75107700926837,142.90880058126413,3.5372999326234043,3.680510456211396,5.110187446084126
32.9,103.0041690906633,104.40763222182562,146.6656487260257,3.4585341446500095,3.6590288776731974,5.039779879132824
33.599999999999994,105.15948747066258,106.81356901810389,149.8921489987974,3.4155709875736107,3.637547299135,4.993854671502371
34.3,107.61554795019664,109.21950581438216,153.32973166010214,3.315323621062017,3.5731025635204032,4.877048273087068
35.0,109.67061896368433,111.32470051112564,156.27166604272657,3.315323621062017,3.580263089699801,4.882135189266421
35.699999999999996,112.32717417624158,114.03137940693868,160.06420445517765,3.365447304317814,3.601744668238001,4.931182038653756
36.4,114.78323465577564,116.73805830275174,163.7161116516622,3.401249935214813,3.6303867729555996,4.976468259649441
37.099999999999994,117.23929513530972,119.39461351530899,167.33238198356665,3.4155709875736107,3.6089051944174018,4.97030129362256
37.8,119.74547929809957,122.00104504461045,170.94804709123957,3.537299932623405,3.6948315085701955,5.116355111705902
38.5,122.50228187716841,124.7578476236793,174.8465887822991,3.508657827905806,3.6447078253143985,5.060182266349671
39.199999999999996,124.90821867344668,127.26403178646916,178.32048922858252,3.4585341446500086,3.5802630896998027,4.979282663382799
39.9,127.21390810321336,129.46947384972424,181.50956744430098,3.5229788802646054,3.6232262467761984,5.054632059150022
40.599999999999994,129.82033963251482,132.17615274553728,185.26698555574626,3.5516209849822054,3.6805104562113953,5.11557403396109
41.3,132.47689484507208,134.98307900786193,189.13106377915548,3.6590288776731965,3.7592762441847887,5.2473971995570015
42.0,135.2838211073967,137.63963422041917,192.99321532569195,3.6303867729555996,3.6876709823907996,5.177168001513095
42.699999999999996,137.73988158693078,139.84507628367427,196.28785072023277,3.6661894038525964,3.6733499300319954,5.191839184694183
43.4,140.44656048274382,142.4515078129757,200.04416619742577,3.659028877673196,3.630386772955602,5.156026070742461
44.099999999999994,142.8524972790221,144.8073209259982,203.41090475345231,3.6661894038525964,3.5444604588028055,5.1035850013725375
44.8,145.40880512506774,146.81226825623008,206.6338856974799,3.6375472991349986,3.4513736184706083,5.01970946697368
45.5,147.9651129711134,148.91746295297355,209.9287627479965,3.6089051944173995,3.437052566111808,4.989666681560356
46.199999999999996,150.17055503436848,151.32339974925182,213.18997844880553,3.6447078253144,3.4513736184706105,5.025649023644372
46.9,152.72686288041416,153.6290891790185,216.62731057571582,3.6661894038525986,3.437052566111812,5.030829654487296
47.599999999999994,155.483665459483,156.23552070831997,220.4193915147129,3.6733499300319954,3.4155709875736107,5.020517806852945
48.3,158.19034435529605,158.8920759208772,224.21167863805167,3.651868351493797,3.3797683566766152,4.980429017154626
49.0,160.84689956785328,161.29801271715547,227.7910753455779,3.6017446682380005,3.3224841472414135,4.904966834169056
49.699999999999996,162.95209426459678,163.10246531436417,230.55541463353535,3.6303867729555996,3.3296446734208183,4.930757490231865
50.4,165.859267893433,165.75902052692143,234.48955122177605,3.6948315085701977,3.3869288828560116,5.016896612852416
51.099999999999994,168.71631783901347,168.51582310599028,238.45917583990015,3.7163130871083956,3.4943367755470063,5.104704434008721
51.8,171.4229967348265,171.27262568505913,242.32242182390533,3.7091525609289944,3.5731025635204015,5.153358335424682
52.5,173.92918089761636,173.92918089761636,245.97300651785253,3.737794665646593,3.6017446682380005,5.193829211698665
53.199999999999996,176.33511769389463,176.53561242691782,249.51732642657626,3.7163130871083916,3.6017446682380005,5.178095109836653
53.9,178.7410544901729,178.8413018566845,252.84891894183113,3.6518683514937975,3.644707825314397,5.166186182491237
54.599999999999994,181.0467439199396,181.74847548552074,256.5354397063359,3.544460458802803,3.616065720596802,5.072828269666058
55.3,183.00156756691567,184.20453596505482,259.65531922541004,3.3797683566766152,3.551620984982203,4.913137178108567
56.0,184.5052780645896,186.1593596120309,262.10208851677044,3.4513736184706096,3.737794665646594,5.096464166906701
56.699999999999996,187.11170959389105,189.26702797389032,266.1443212717829,3.616065720596802,4.145944657872369,5.512038402195765
57.4,191.17172793761063,194.78063313202802,272.9214623402958,3.207915728371023,3.752115718005391,4.944863252854177
58.099999999999994,191.17172793761063,194.78063313202802,272.9214623402958,3.1864341498328246,3.6876709823907974,4.884732996657279
58.8,193.72803578365628,197.0863225617947,276.35768559880034,3.2079157283710225,3.673349930032,4.889672451249085
59.49999999999999,196.38459099621352,199.64263040784036,280.04301001259006,3.2365578330886207,3.6590288776731983,4.899493335851905
60.199999999999996,198.99102252551498,202.1488145706302,283.6574876114872,3.2150762545504237,3.680510456211396,4.899816339737623
60.9,201.24658827202586,204.60487505016428,286.99014649535206,3.272360463985617,3.616065720596798,4.891873453059022
61.599999999999994,203.9532671678389,207.06093552969833,290.63923721835937,3.351126251959017,3.608905194417397,4.939741717769031
62.3,206.45945133062878,209.4668723259766,294.1120120732427,3.4943367755470063,3.6590288776731983,5.073912024105459
62.99999999999999,208.96563549341863,211.77256175574328,297.51345302315053,3.4800157231882096,3.5945841420585998,5.016220893647824
63.699999999999996,211.4718196562085,214.42911696830052,301.16470030950353,3.2150762545504237,3.1291499403976273,4.4887135595059
64.39999999999999,213.6772617194636,216.6846827148114,304.31927953901743,3.6089051944174018,3.48717624936761,5.020957931755544
65.1,216.43406429853243,219.19086687760128,308.039510958149,3.680510456211396,3.515818354085204,5.093944436222307
65.8,219.49160897713605,221.69705104039113,311.9713910783772,3.6805104562114,3.4728551970088084,5.0651180982503226
66.5,222.14816418969332,223.952616786902,315.44346786476956,3.7019920347495985,3.515818354085205,5.110610944813734
67.19999999999999,224.90496676876216,226.75954304922664,319.37773003318824,3.787918348902391,3.5229788802646054,5.177160666289399
67.89999999999999,227.7620167143426,229.26572721201651,323.16916612176857,3.795078875081791,3.5659420373410056,5.2119893513009234
68.6,230.51881929341144,232.02252979108536,327.06785286708254,3.8452025583375886,3.5086578279058083,5.214308413941054
69.3,233.3758692389919,234.02747712131725,330.50439693115084,3.8810051892345876,3.522978880264605,5.250532434601279
70.0,236.13267181806074,236.43341391759552,334.1547514500804,3.9239683463109807,3.4728551970088075,5.247724067642418
70.69999999999999,238.93959808038537,238.73910334736217,337.7698787605529,3.9884130819255788,3.465694670829407,5.290311186012723
71.39999999999999,241.59615329294263,240.94454541061725,341.20811134713085,3.9812525557461775,3.4800157231882047,5.294867539947548
72.1,244.30283218875567,243.5509769399187,344.96514633196807,3.938289398669781,3.458534144650011,5.248131307175262
72.8,247.05963476782452,245.9067900529412,348.58085507633973,3.96693150338738,3.4728551970088084,5.279288941157981
73.5,249.91668471340498,248.26260316596367,352.2678944054939,3.938289398669782,3.394089409035413,5.204265720196045
74.19999999999999,252.47299255945063,250.51816891247452,355.67114716713183,3.9239683463109833,3.3511262519590117,5.165686282090845
74.89999999999999,255.22979513851948,252.7236109757296,359.1816697314362,3.8738446630551833,3.215076254550423,5.038359624839922
75.6,257.6357319347977,254.52806357293832,362.1611595902695,3.780757822722986,3.186434149832824,4.946818886609224
76.3,259.8411739980528,256.332516170147,364.9983486959976,3.694831508570193,3.1291499403976224,4.844625199146605
77.0,261.9964923780521,258.3374635003789,367.9407657031391,3.5945841420585993,3.12198941421823,4.766462111645483
77.69999999999999,264.10168707479556,260.5930292468898,371.0234871377061,3.4943367755470107,3.0933473095006274,4.673246027372208
78.39999999999999,266.0565107217717,262.59797657712164,373.8231723687588,3.3654473043178177,2.9716183644508356,4.4959721760568545
79.1,267.8609633189804,264.35230549107456,376.33978940396213,3.1577920451152255,2.8284078408628415,4.2463343267958376
79.8,269.1641790836311,265.7056449389811,378.2179861590468,2.885692050298039,2.6493946863778524,3.9254754839547523
80.5,270.11652906549125,266.80836597060863,379.67044054850334,2.6135920554808565,2.470381531892863,3.6092596061481914
81.19999999999999,270.76813694781663,267.81083963572456,380.8385876097423,2.305689429766671,2.2698867988696754,3.2481230036832374
81.89999999999999,271.3696211468862,268.6128185678173,381.83022088403595,2.0622315396670876,2.0765525920258807,2.9376663398457823
82.6,272.07135271246733,269.0639317171195,382.64633843520124,1.768649966311703,1.868897332823297,2.5851184885314464
